0.947265625
0.961914063
1.000976563
0.9765625
1.005859375
1.020507813
0.99609375
1.03515625
1.020507813
1.044921875
0.966796875
0.9765625
0.9375
0.91796875
0.883789063
0.922851563
0.922851563
0.942382813
0.908203125
0.8984375
0.927734375
0.874023438
0.942382813
0.927734375
0.952148438
0.927734375
0.942382813
0.9375
0.971679688
0.922851563
0.932617188
0.961914063
0.942382813
0.991210938
0.947265625
0.991210938
0.971679688
0.95703125
0.95703125
0.961914063
0.961914063
0.966796875
0.971679688
0.952148438
0.981445313
0.961914063
0.981445313
0.95703125
0.952148438
0.9375
0.971679688
0.966796875
0.961914063
0.9765625
0.966796875
0.99609375
0.95703125
0.966796875
0.952148438
0.971679688
0.947265625
0.971679688
0.966796875
0.961914063
0.9765625
0.952148438
1.005859375
0.99609375
1.005859375
0.971679688
0.961914063
0.922851563
0.927734375
0.932617188
0.932617188
0.91796875
0.922851563
0.922851563
0.908203125
0.913085938
0.903320313
1.19140625
1.6015625
1.733398438
1.206054688
0.942382813
0.859375
0.844726563
0.825195313
0.844726563
0.849609375
0.83984375
0.87890625
0.883789063
0.91796875
0.883789063
0.9375
0.8984375
0.927734375
0.91796875
0.947265625
0.961914063
0.942382813
0.971679688
0.971679688
1.010742188
0.9765625
1.044921875
0.99609375
1.025390625
1.000976563
1.025390625
0.95703125
0.952148438
0.932617188
0.913085938
0.9375
0.888671875
0.913085938
0.883789063
0.908203125
0.908203125
0.8984375
0.91796875
0.927734375
0.908203125
0.908203125
0.947265625
0.932617188
0.947265625
0.903320313
0.981445313
0.947265625
0.947265625
0.981445313
0.952148438
0.95703125
0.981445313
0.961914063
0.9375
0.966796875
0.986328125
0.981445313
0.932617188
0.947265625
0.9375
0.961914063
0.966796875
0.95703125
0.961914063
0.95703125
0.952148438
0.947265625
0.9765625
0.95703125
0.947265625
0.932617188
0.9765625
0.95703125
0.9375
0.981445313
0.942382813
0.961914063
0.942382813
1.005859375
0.961914063
0.99609375
0.991210938
1.005859375
0.986328125
0.9765625
0.922851563
0.922851563
0.95703125
0.922851563
0.942382813
0.966796875
0.9375
0.893554688
0.927734375
0.893554688
0.986328125
1.313476563
1.728515625
1.396484375
0.9375
0.883789063
0.834960938
0.883789063
0.844726563
0.888671875
0.874023438
0.874023438
0.888671875
0.8984375
0.913085938
0.893554688
0.91796875
0.927734375
0.95703125
0.922851563
0.947265625
0.947265625
1.000976563
0.971679688
0.981445313
0.991210938
1.005859375
1.020507813
1.025390625
1.03515625
0.966796875
1.025390625
0.961914063
0.9375
0.922851563
0.91796875
0.888671875
0.883789063
0.908203125
0.8984375
0.8984375
0.893554688
0.8984375
0.883789063
0.9375
0.903320313
0.932617188
0.947265625
0.922851563
0.952148438
0.95703125
0.952148438
0.947265625
0.922851563
0.991210938
0.952148438
0.966796875
0.961914063
0.966796875
0.95703125
0.932617188
0.942382813
0.961914063
0.961914063
0.952148438
0.986328125
0.952148438
0.971679688
0.91796875
0.966796875
0.961914063
0.981445313
0.9765625
0.952148438
0.95703125
0.961914063
0.966796875
0.952148438
0.9765625
0.95703125
0.947265625
0.932617188
0.99609375
0.9765625
1.015625
1.010742188
0.9765625
0.99609375
0.922851563
0.927734375
0.91796875
0.932617188
0.91796875
0.927734375
0.903320313
0.927734375
0.91796875
0.908203125
0.986328125
1.362304688
1.77734375
1.401367188
1.005859375
0.864257813
0.869140625
0.854492188
0.830078125
0.859375
0.874023438
0.883789063
0.87890625
0.883789063
0.87890625
0.903320313
0.893554688
0.922851563
0.932617188
0.981445313
0.952148438
0.932617188
0.952148438
0.952148438
0.961914063
0.991210938
1.040039063
1.000976563
1.025390625
0.991210938
1.015625
0.991210938
0.95703125
0.947265625
0.947265625
0.91796875
0.913085938
0.922851563
0.883789063
0.913085938
0.8984375
0.922851563
0.932617188
0.922851563
0.908203125
0.922851563
0.922851563
0.9375
0.971679688
0.947265625
0.971679688
0.966796875
0.981445313
0.9375
0.981445313
0.9765625
0.966796875
0.95703125
0.991210938
0.971679688
0.947265625
0.95703125
0.961914063
0.9765625
0.932617188
0.981445313
0.95703125
0.981445313
0.961914063
0.961914063
0.942382813
0.952148438
0.971679688
0.947265625
0.966796875
0.942382813
0.9765625
0.9375
0.961914063
0.947265625
0.942382813
0.952148438
0.952148438
0.952148438
0.952148438
0.952148438
0.961914063
0.99609375
0.986328125
1.044921875
0.952148438
0.986328125
0.942382813
0.942382813
0.903320313
0.903320313
0.932617188
0.903320313
0.9375
0.908203125
0.932617188
0.859375
0.9375
1.196289063
1.689453125
1.6796875
1.07421875
0.903320313
0.849609375
0.874023438
0.825195313
0.849609375
0.859375
0.869140625
0.849609375
0.913085938
0.893554688
0.883789063
0.91796875
0.927734375
0.927734375
0.8984375
0.966796875
0.947265625
0.966796875
0.9375
1.030273438
0.95703125
0.986328125
1.020507813
1.03515625
1.025390625
0.99609375
1.010742188
0.942382813
0.95703125
0.927734375
0.952148438
0.903320313
0.922851563
0.908203125
0.8984375
0.883789063
0.903320313
0.908203125
0.9375
0.961914063
0.913085938
0.9375
0.922851563
0.913085938
0.927734375
0.95703125
0.961914063
0.961914063
1.005859375
0.95703125
0.95703125
0.947265625
0.986328125
0.952148438
0.9765625
0.952148438
0.981445313
0.961914063
1.010742188
0.952148438
0.966796875
0.981445313
0.952148438
0.971679688
0.95703125
0.986328125
0.952148438
0.966796875
0.947265625
0.961914063
0.971679688
0.952148438
0.966796875
0.961914063
0.986328125
0.9375
0.9765625
0.966796875
0.991210938
0.922851563
0.986328125
0.952148438
0.95703125
0.9765625
1.010742188
1.015625
0.986328125
0.986328125
0.971679688
0.966796875
0.91796875
0.927734375
0.893554688
0.927734375
0.908203125
0.91796875
0.932617188
0.908203125
0.942382813
1.040039063
1.499023438
1.704101563
1.23046875
0.913085938
0.864257813
0.834960938
0.869140625
0.864257813
0.869140625
0.874023438
0.893554688
0.893554688
0.854492188
0.922851563
0.893554688
0.927734375
0.91796875
0.932617188
0.942382813
0.947265625
0.961914063
0.952148438
0.961914063
0.947265625
1.03515625
1.005859375
1.0546875
0.986328125
1.049804688
1.020507813
0.986328125
0.942382813
0.927734375
0.91796875
0.8984375
0.91796875
0.903320313
0.922851563
0.8984375
0.913085938
0.87890625
0.888671875
0.903320313
0.942382813
0.932617188
0.932617188
0.947265625
0.913085938
0.971679688
0.91796875
0.9765625
0.952148438
0.981445313
0.971679688
0.9765625
0.947265625
0.961914063
0.9765625
0.927734375
0.9765625
0.991210938
0.99609375
0.932617188
0.981445313
0.947265625
0.966796875
0.966796875
0.95703125
0.99609375
0.942382813
0.952148438
0.947265625
0.961914063
0.942382813
0.971679688
0.961914063
0.971679688
0.927734375
0.961914063
0.942382813
0.95703125
0.981445313
0.947265625
0.986328125
0.952148438
0.9765625
0.961914063
1.015625
1.005859375
1.040039063
0.99609375
0.952148438
0.942382813
0.91796875
0.922851563
0.908203125
0.942382813
0.908203125
0.9375
0.913085938
0.9375
0.888671875
1.064453125
1.494140625
1.762695313
1.264648438
0.913085938
0.883789063
0.825195313
0.864257813
0.849609375
0.859375
0.869140625
0.869140625
0.893554688
0.8984375
0.893554688
0.87890625
0.927734375
0.91796875
0.9375
0.932617188
0.952148438
0.932617188
0.99609375
0.966796875
0.981445313
0.986328125
0.986328125
1.020507813
0.99609375
1.030273438
0.981445313
1.000976563
0.952148438
0.981445313
0.893554688
0.922851563
0.8984375
0.888671875
0.927734375
0.8984375
0.91796875
0.888671875
0.91796875
0.922851563
0.9375
0.922851563
0.9375
0.932617188
0.952148438
0.942382813
0.942382813
0.942382813
0.966796875
0.961914063
0.942382813
0.966796875
0.932617188
0.966796875
0.952148438
0.971679688
0.961914063
0.9765625
0.947265625
0.947265625
0.961914063
0.932617188
0.981445313
0.9765625
0.95703125
0.961914063
0.95703125
0.927734375
0.9765625
0.991210938
0.95703125
0.991210938
0.947265625
0.981445313
0.942382813
0.95703125
0.952148438
0.9765625
0.961914063
0.961914063
0.971679688
0.966796875
0.99609375
0.961914063
0.966796875
0.927734375
0.986328125
0.966796875
1.025390625
0.991210938
1.025390625
0.981445313
0.961914063
0.966796875
0.903320313
0.927734375
0.913085938
0.932617188
0.908203125
0.942382813
0.913085938
0.893554688
0.927734375
1.206054688
1.674804688
1.655273438
1.098632813
0.91796875
0.874023438
0.83984375
0.854492188
0.830078125
0.869140625
0.825195313
0.874023438
0.888671875
0.87890625
0.91796875
0.883789063
0.927734375
0.903320313
0.927734375
0.908203125
0.947265625
0.9375
0.99609375
0.95703125
0.991210938
0.9765625
0.99609375
1.03515625
1.015625
1.000976563
1.015625
1.030273438
0.9765625
0.947265625
0.913085938
0.932617188
0.893554688
0.913085938
0.893554688
0.913085938
0.9375
0.893554688
0.942382813
0.8984375
0.942382813
0.91796875
0.952148438
0.942382813
0.947265625
0.942382813
0.9765625
0.971679688
0.947265625
0.966796875
0.947265625
0.986328125
0.9375
0.981445313
0.947265625
0.99609375
0.971679688
0.942382813
0.947265625
0.952148438
0.952148438
0.9375
0.961914063
0.952148438
0.991210938
0.947265625
0.95703125
0.942382813
0.991210938
0.971679688
0.91796875
0.952148438
0.952148438
0.981445313
0.952148438
0.991210938
0.952148438
0.947265625
0.9375
0.991210938
0.966796875
0.966796875
0.947265625
0.961914063
0.9375
0.942382813
1.020507813
0.961914063
0.991210938
0.971679688
1.030273438
0.971679688
0.986328125
0.991210938
0.942382813
0.91796875
0.913085938
0.922851563
0.8984375
0.91796875
0.913085938
0.9765625
0.888671875
0.8984375
1.020507813
1.396484375
1.708984375
1.34765625
0.961914063
0.859375
0.864257813
0.849609375
0.869140625
0.83984375
0.849609375
0.854492188
0.903320313
0.883789063
0.908203125
0.927734375
0.888671875
0.91796875
0.922851563
0.952148438
0.952148438
0.952148438
0.922851563
0.986328125
0.966796875
0.971679688
1.044921875
1.030273438
1.09375
1.005859375
0.986328125
0.971679688
1.000976563
0.922851563
0.91796875
0.913085938
0.91796875
0.883789063
0.908203125
0.893554688
0.874023438
0.91796875
0.888671875
0.913085938
0.927734375
0.913085938
0.91796875
0.942382813
0.966796875
0.981445313
0.966796875
0.91796875
0.991210938
0.9375
0.961914063
0.95703125
0.966796875
0.942382813
1.000976563
0.952148438
0.966796875
0.952148438
0.9765625
0.952148438
0.961914063
0.966796875
0.947265625
0.9765625
0.9375
0.991210938
0.966796875
0.961914063
0.9765625
0.932617188
0.9765625
0.947265625
0.971679688
0.95703125
0.971679688
0.927734375
0.947265625
0.966796875
0.986328125
0.961914063
0.947265625
0.952148438
0.947265625
0.971679688
0.966796875
1.015625
0.966796875
1.020507813
0.981445313
0.981445313
0.966796875
0.947265625
0.927734375
0.903320313
0.913085938
0.922851563
0.91796875
0.903320313
0.966796875
0.87890625
0.903320313
1.010742188
1.494140625
1.71875
1.264648438
0.932617188
0.859375
0.849609375
0.849609375
0.854492188
0.849609375
0.8984375
0.869140625
0.888671875
0.854492188
0.888671875
0.913085938
0.927734375
0.952148438
0.908203125
0.942382813
0.913085938
0.942382813
0.961914063
1.020507813
0.981445313
1.03515625
1.015625
1.020507813
1.005859375
1.025390625
1.020507813
1.010742188
1.010742188
0.91796875
0.932617188
0.91796875
0.932617188
0.893554688
0.913085938
0.908203125
0.908203125
0.903320313
0.9375
0.942382813
0.927734375
0.9375
0.922851563
0.91796875
0.922851563
0.9765625
0.947265625
0.981445313
0.952148438
0.961914063
0.9765625
0.922851563
0.971679688
0.95703125
0.991210938
0.942382813
0.966796875
0.961914063
0.971679688
0.9375
0.966796875
0.947265625
0.952148438
1.010742188
0.942382813
0.986328125
0.961914063
0.971679688
0.9375
0.971679688
0.922851563
0.9765625
0.986328125
0.971679688
0.971679688
0.9375
0.986328125
0.927734375
0.961914063
0.9375
0.9765625
0.966796875
0.95703125
0.991210938
0.966796875
0.942382813
0.942382813
0.99609375
1.010742188
1.030273438
0.981445313
0.986328125
0.932617188
0.932617188
0.908203125
0.942382813
0.922851563
0.922851563
0.908203125
0.91796875
0.942382813
0.874023438
1.020507813
1.42578125
1.801757813
1.381835938
0.986328125
0.87890625
0.844726563
0.854492188
0.830078125
0.864257813
0.844726563
0.888671875
0.830078125
0.874023438
0.87890625
0.922851563
0.903320313
0.893554688
0.913085938
0.903320313
0.927734375
0.95703125
0.971679688
0.961914063
0.99609375
0.966796875
1.020507813
1.000976563
1.044921875
1.010742188
1.059570313
0.991210938
0.961914063
0.961914063
0.927734375
0.932617188
0.8984375
0.927734375
0.893554688
0.9375
0.893554688
0.913085938
0.932617188
0.932617188
0.942382813
0.8984375
0.942382813
0.9375
0.966796875
0.922851563
0.961914063
0.9375
0.942382813
0.95703125
0.952148438
0.9765625
0.966796875
0.9765625
0.947265625
0.95703125
0.947265625
0.981445313
0.947265625
0.966796875
0.952148438
0.947265625
0.91796875
0.927734375
0.986328125
0.9765625
0.971679688
0.9375
0.966796875
0.9375
0.95703125
0.9375
0.966796875
0.971679688
0.966796875
0.952148438
0.9375
0.981445313
0.927734375
0.9765625
0.952148438
0.986328125
0.947265625
0.986328125
0.947265625
0.981445313
0.991210938
0.971679688
1.03515625
0.981445313
1.040039063
0.966796875
0.9765625
0.91796875
0.932617188
0.91796875
0.932617188
0.932617188
0.927734375
0.927734375
0.888671875
0.8984375
0.952148438
1.362304688
1.723632813
1.494140625
0.952148438
0.893554688
0.854492188
0.83984375
0.849609375
0.854492188
0.888671875
0.859375
0.8984375
0.87890625
0.893554688
0.87890625
0.952148438
0.913085938
0.922851563
0.922851563
0.922851563
0.981445313
0.913085938
0.9765625
1.000976563
1.020507813
0.981445313
1.03515625
1.000976563
1.020507813
1.010742188
1.010742188
0.95703125
0.942382813
0.966796875
0.913085938
0.893554688
0.874023438
0.893554688
0.913085938
0.942382813
0.893554688
0.913085938
0.927734375
0.8984375
0.922851563
0.922851563
0.952148438
0.91796875
0.95703125
0.947265625
0.95703125
0.9375
0.9765625
0.961914063
0.932617188
0.961914063
0.966796875
0.961914063
0.922851563
0.971679688
0.952148438
0.981445313
0.9375
0.9765625
0.952148438
0.961914063
0.942382813
0.942382813
0.95703125
0.952148438
0.971679688
0.9375
0.971679688
0.922851563
0.99609375
0.947265625
0.981445313
0.966796875
0.947265625
0.95703125
0.95703125
0.971679688
0.952148438
0.966796875
0.971679688
1.005859375
0.986328125
1.044921875
0.99609375
1.015625
0.981445313
0.947265625
0.9375
0.9375
0.91796875
0.922851563
0.947265625
0.893554688
0.952148438
0.903320313
0.913085938
0.961914063
1.274414063
1.73828125
1.489257813
0.986328125
0.854492188
0.888671875
0.825195313
0.849609375
0.854492188
0.8984375
0.859375
0.869140625
0.888671875
0.903320313
0.913085938
0.8984375
0.932617188
0.91796875
0.947265625
0.922851563
0.991210938
0.942382813
0.971679688
0.986328125
0.981445313
1.015625
0.971679688
1.020507813
0.991210938
1.03515625
1.000976563
0.991210938
0.91796875
0.947265625
0.888671875
0.903320313
0.883789063
0.883789063
0.927734375
0.893554688
0.927734375
0.888671875
0.91796875
0.903320313
0.913085938
0.932617188
0.947265625
0.927734375
0.952148438
0.961914063
0.9375
0.966796875
0.986328125
0.971679688
0.927734375
1.000976563
0.947265625
0.952148438
0.961914063
0.9765625
0.947265625
0.9375
0.961914063
0.961914063
0.9765625
0.932617188
0.9765625
0.932617188
0.971679688
0.952148438
0.981445313
0.95703125
0.971679688
0.9765625
0.942382813
0.961914063
0.942382813
1.000976563
0.9375
0.981445313
0.952148438
0.961914063
0.95703125
0.99609375
0.95703125
0.947265625
0.99609375
0.947265625
0.99609375
0.986328125
1.049804688
1.000976563
1.010742188
0.952148438
0.947265625
0.927734375
0.952148438
0.922851563
0.8984375
0.9375
0.927734375
0.942382813
0.8984375
0.961914063
1.240234375
1.723632813
1.616210938
1.040039063
0.903320313
0.859375
0.864257813
0.805664063
0.864257813
0.854492188
0.888671875
0.834960938
0.87890625
0.869140625
0.8984375
0.908203125
0.908203125
0.927734375
0.908203125
0.95703125
0.91796875
0.966796875
0.966796875
1.005859375
0.9765625
1.005859375
0.971679688
0.99609375
1.040039063
